; (1) Energy (kev); (2) Area (no mask); (3) Area (mask); (4) Area (modulated)
;  (areas in cm^2)
      5.50000       0.0000000       0.0000000       0.0000000
      11.0000      0.96554575      0.48564654      0.47989922
      13.0000       319.39161       159.15988       160.23173
      15.0000       2412.1373       1191.8657       1220.2716
      17.0000       3708.0778       1826.6861       1881.3917
      19.0000       4048.1080       1991.8807       2056.2273
      21.0000       4231.2542       2085.3547       2145.8995
      23.0000       4362.6892       2152.8998       2209.7893
      25.0000       4457.5770       2198.8724       2258.7046
      27.0000       3960.5366       1947.7989       2012.7377
      29.0000       4039.7458       1994.0302       2045.7156
      31.0500       4127.0897       2034.2885       2092.8012
      33.1500       3767.1969       1855.0631       1912.1338
      35.2500       3823.1892       1887.1767       1936.0125
      37.3500       4049.9118       1997.7876       2052.1242
      39.4500       4285.6249       2114.6329       2170.9921
      41.5500       4465.5098       2203.6558       2261.8540
      43.6500       4621.6501       2276.6629       2344.9872
      45.7500       4665.0477       2297.3586       2367.6891
      47.8500       4687.4813       2313.1828       2374.2984
      50.0000       4707.8876       2320.0217       2387.8659
      52.2000       4715.7066       2324.5046       2391.2020
      54.4000       4725.8140       2335.3121       2390.5019
      56.6000       4742.0475       2347.2926       2394.7548
      58.8000       4752.6721       2351.8434       2400.8287
      61.0000       4755.3472       2364.3621       2390.9851
      63.2000       4752.7479       2376.7397       2376.0082
      65.4000       4749.5216       2395.8547       2353.6669
      67.6000       4750.0127       2405.4605       2344.5522
      69.8000       4733.6669       2420.8685       2312.7984
      72.0500       4713.7174       2442.2485       2271.4689
      74.3500       4685.4382       2455.5372       2229.9009
      76.6500       4647.3586       2467.6091       2179.7495
      78.9500       4608.8692       2487.9645       2120.9046
      81.2500       4559.7048       2505.1714       2054.5334
      83.5500       4492.9412       2512.6404       1980.3008
      85.8500       4437.1799       2518.9899       1918.1901
      88.1500       4370.6513       2174.6694       2195.9819
      90.5000       4295.6945       2137.2231       2158.4714
      92.9000       4208.3189       2099.2000       2109.1189
      95.3000       4128.1776       2058.6456       2069.5320
      97.7000       4038.9077       2014.9111       2023.9966
      100.100       3943.4116       1977.7309       1965.6807
      102.500       3861.9509       1928.9459       1933.0049
      104.900       3766.3996       1885.4963       1880.9033
      107.300       3674.9985       1846.5656       1828.4329
      109.700       3579.6532       1802.3042       1777.3490
      112.100       3483.1154       1761.6828       1721.4326
      114.550       3395.1925       1721.8280       1673.3645
      117.050       3297.9459       1682.7027       1615.2432
      119.550       3206.8581       1646.6441       1560.2140
      122.050       3117.0968       1609.1649       1507.9320
      124.550       3031.9840       1573.4489       1458.5351
      127.050       2950.0069       1539.4410       1410.5659
      129.550       2864.9744       1507.9849       1356.9896
      131.900       2780.8248       1477.8115       1303.0133
      134.300       2707.2837       1446.4220       1260.8617
      136.900       2631.7753       1419.7346       1212.0406
      139.500       2558.1391       1394.8334       1163.3058
      142.100       2486.6671       1369.0523       1117.6148
      144.700       2411.4858       1343.2912       1068.1947
      147.300       2348.3363       1319.3824       1028.9539
      149.900       2282.8857       1298.0356       984.85002
      152.500       2228.3107       1277.6703       950.64035
      155.250       2173.0548       1260.3820       912.67282
      158.050       2113.4171       1240.3879       873.02921
      160.750       2053.4153       1221.3835       832.03183
      163.450       2000.6658       1201.6830       798.98274
      166.150       1951.2369       1186.3590       764.87786
      168.850       1899.9391       1169.2385       730.70061
      171.550       1860.3402       1154.1805       706.15964
      174.250       1811.1029       1141.8409       669.26201
      176.950       1766.5720       1127.8324       638.73961
      179.650       1729.7787       1109.4496       620.32910
      182.400       1686.9793       1095.7221       591.25723
      185.200       1650.5024       1082.3904       568.11204
      188.000       1614.0707       1070.2595       543.81125
      190.800       1576.2474       1057.4882       518.75919
      193.600       1536.6280       1039.5915       497.03645
      196.500       1536.6280       1039.5915       497.03645
      199.000       1445.4076       1001.5439       443.86368
      212.500       1113.3087       835.15398       278.15476
      238.500       918.64495       728.77152       189.87343
      267.500       781.63229       654.57106       127.06123
      300.000       688.33642       600.69590       87.640516
      336.500       618.40620       553.84395       64.562251
      377.500       552.62264       507.16153       45.461117
      423.500       494.54621       461.75214       32.794070
      475.000       448.19427       422.04407       26.150197
      532.500       402.64695       384.97689       17.670062
      597.500       363.95902       349.34078       14.618249
      670.500       321.19914       314.33687       6.8622700
      752.000       285.59464       278.70938       6.8852603
      843.500       252.79770       246.47567       6.3220233
      946.500       222.78244       218.40875       4.3736928
